Wavelength, W/m2 
339.619, -   
340, -   
340.381, -   
340.762, -   
341.143, -   
341.524, -   
341.904, -   
342.285, -   
342.666, -   
343.046, -   
343.427, -   
343.807, -   
344.188, -   
344.568, -   
344.949, -   
345.329, -   
345.71, -   
346.09, -   
346.47, 1.3727 
346.85, 0.1380 
347.23, 0.1447 
347.611, 0.0700 
347.991, 0.0728 
348.371, 0.0689 
348.751, 0.0614 
349.131, 0.0514 
349.511, 0.0453 
349.891, 0.0628 
350.27, 0.0372 
350.65, 0.0476 
351.03, 0.0509 
351.41, 0.0408 
351.79, 0.0431 
352.169, 0.0405 
352.549, 0.0631 
352.928, 0.0490 
353.308, 0.0405 
353.687, 0.0402 
354.067, 0.0565 
354.446, 0.0470 
354.826, 0.0526 
355.205, 0.0514 
355.584, 0.0435 
355.964, 0.0421 
356.343, 0.0384 
356.722, 0.0429 
357.101, 0.0455 
357.48, 0.0418 
357.859, 0.0465 
358.238, 0.0448 
358.617, 0.0376 
358.996, 0.0335 
359.375, 0.0485 
359.754, 0.0416 
360.133, 0.0465 
360.512, 0.0386 
360.891, 0.0377 
361.269, 0.0436 
361.648, 0.0421 
362.027, 0.0407 
362.405, 0.0413 
362.784, 0.0377 
363.162, 0.0355 
363.541, 0.0483 
363.919, 0.0355 
364.298, 0.0311 
364.676, 0.0346 
365.054, 0.0407 
365.433, 0.0261 
365.811, 0.0312 
366.189, 0.0328 
366.567, 0.0304 
366.945, 0.0339 
367.323, 0.0333 
367.701, 0.0359 
368.079, 0.0392 
368.457, 0.0336 
368.835, 0.0336 
369.213, 0.0367 
369.591, 0.0325 
369.969, 0.0356 
370.346, 0.0298 
370.724, 0.0317 
371.102, 0.0268 
371.479, 0.0371 
371.857, 0.0301 
372.235, 0.0283 
372.612, 0.0252 
372.99, 0.0308 
373.367, 0.0332 
373.744, 0.0322 
374.122, 0.0333 
374.499, 0.0323 
374.876, 0.0305 
375.254, 0.0345 
375.631, 0.0362 
376.008, 0.0351 
376.385, 0.0230 
376.762, 0.0239 
377.139, 0.0341 
377.516, 0.0227 
377.893, 0.0249 
378.27, 0.0238 
378.647, 0.0300 
379.024, 0.0265 
379.4, 0.0267 
379.777, 0.0243 
380.154, 0.0224 
380.53, 0.0274 
380.907, 0.0251 
381.284, 0.0220 
381.66, 0.0238 
382.037, 0.0282 
382.413, 0.0267 
382.79, 0.0263 
383.166, 0.0241 
383.542, 0.0286 
383.919, 0.0212 
384.295, 0.0261 
384.671, 0.0242 
385.047, 0.0219 
385.423, 0.0171 
385.799, 0.0255 
386.176, 0.0212 
386.552, 0.0223 
386.928, 0.0219 
387.303, 0.0269 
387.679, 0.0197 
388.055, 0.0235 
388.431, 0.0239 
388.807, 0.0210 
389.183, 0.0180 
389.558, 0.0207 
389.934, 0.0205 
390.309, 0.0205 
390.685, 0.0247 
391.061, 0.0222 
391.436, 0.0187 
391.811, 0.0185 
392.187, 0.0170 
392.562, 0.0192 
392.938, 0.0193 
393.313, 0.0205 
393.688, 0.0195 
394.063, 0.0178 
394.438, 0.0197 
394.814, 0.0204 
395.189, 0.0191 
395.564, 0.0189 
395.939, 0.0206 
396.314, 0.0181 
396.689, 0.0215 
397.063, 0.0153 
397.438, 0.0197 
397.813, 0.0213 
398.188, 0.0176 
398.563, 0.0185 
398.937, 0.0167 
399.312, 0.0151 
399.686, 0.0185 
400.061, 0.0142 
400.435, 0.0161 
400.81, 0.0169 
401.184, 0.0194 
401.559, 0.0142 
401.933, 0.0167 
402.307, 0.0139 
402.682, 0.0125 
403.056, 0.0177 
403.43, 0.0186 
403.804, 0.0211 
404.178, 0.0195 
404.552, 0.0189 
404.926, 0.0148 
405.3, 0.0143 
405.674, 0.0170 
406.048, 0.0166 
406.422, 0.0123 
406.796, 0.0154 
407.169, 0.0168 
407.543, 0.0133 
407.917, 0.0170 
408.291, 0.0155 
408.664, 0.0164 
409.038, 0.0114 
409.411, 0.0134 
409.785, 0.0151 
410.158, 0.0163 
410.531, 0.0138 
410.905, 0.0168 
411.278, 0.0136 
411.651, 0.0136 
412.025, 0.0125 
412.398, 0.0136 
412.771, 0.0149 
413.144, 0.0138 
413.517, 0.0151 
413.89, 0.0156 
414.263, 0.0134 
414.636, 0.0128 
415.009, 0.0144 
415.382, 0.0122 
415.755, 0.0144 
416.127, 0.0135 
416.5, 0.0142 
416.873, 0.0122 
417.245, 0.0161 
417.618, 0.0131 
417.991, 0.0132 
418.363, 0.0153 
418.736, 0.0141 
419.108, 0.0144 
419.48, 0.0155 
419.853, 0.0130 
420.225, 0.0150 
420.597, 0.0127 
420.97, 0.0124 
421.342, 0.0145 
421.714, 0.0143 
422.086, 0.0095 
422.458, 0.0132 
422.83, 0.0110 
423.202, 0.0125 
423.574, 0.0173 
423.946, 0.0106 
424.318, 0.0107 
424.69, 0.0128 
425.061, 0.0137 
425.433, 0.0147 
425.805, 0.0127 
426.177, 0.0134 
426.548, 0.0113 
426.92, 0.0140 
427.291, 0.0104 
427.663, 0.0131 
428.034, 0.0136 
428.406, 0.0124 
428.777, 0.0110 
429.148, 0.0125 
429.519, 0.0092 
429.891, 0.0122 
430.262, 0.0116 
430.633, 0.0117 
431.004, 0.0095 
431.375, 0.0127 
431.746, 0.0106 
432.117, 0.0118 
432.488, 0.0112 
432.859, 0.0101 
433.23, 0.0137 
433.601, 0.0110 
433.971, 0.0108 
434.342, 0.0129 
434.713, 0.0128 
435.083, 0.0247 
435.454, 0.0268 
435.825, 0.0229 
436.195, 0.0141 
436.566, 0.0116 
436.936, 0.0129 
437.306, 0.0085 
437.677, 0.0114 
438.047, 0.0103 
438.417, 0.0103 
438.788, 0.0099 
439.158, 0.0122 
439.528, 0.0119 
439.898, 0.0096 
440.268, 0.0094 
440.638, 0.0104 
441.008, 0.0116 
441.378, 0.0090 
441.748, 0.0106 
442.118, 0.0134 
442.487, 0.0118 
442.857, 0.0128 
443.227, 0.0118 
443.597, 0.0107 
443.966, 0.0090 
444.336, 0.0097 
444.705, 0.0126 
445.075, 0.0102 
445.444, 0.0125 
445.814, 0.0121 
446.183, 0.0110 
446.552, 0.0134 
446.922, 0.0102 
447.291, 0.0100 
447.66, 0.0123 
448.029, 0.0108 
448.398, 0.0116 
448.768, 0.0118 
449.137, 0.0095 
449.506, 0.0115 
449.875, 0.0099 
450.243, 0.0118 
450.612, 0.0115 
450.981, 0.0117 
451.35, 0.0112 
451.719, 0.0122 
452.087, 0.0113 
452.456, 0.0101 
452.825, 0.0104 
453.193, 0.0094 
453.562, 0.0113 
453.93, 0.0080 
454.299, 0.0102 
454.667, 0.0106 
455.035, 0.0111 
455.404, 0.0125 
455.772, 0.0128 
456.14, 0.0109 
456.508, 0.0107 
456.877, 0.0092 
457.245, 0.0112 
457.613, 0.0075 
457.981, 0.0100 
458.349, 0.0095 
458.717, 0.0110 
459.085, 0.0109 
459.452, 0.0071 
459.82, 0.0113 
460.188, 0.0102 
460.556, 0.0095 
460.923, 0.0088 
461.291, 0.0107 
461.659, 0.0118 
462.026, 0.0106 
462.394, 0.0093 
462.761, 0.0103 
463.128, 0.0099 
463.496, 0.0090 
463.863, 0.0108 
464.23, 0.0081 
464.598, 0.0105 
464.965, 0.0078 
465.332, 0.0084 
465.699, 0.0102 
466.066, 0.0091 
466.433, 0.0089 
466.8, 0.0086 
467.167, 0.0097 
467.534, 0.0097 
467.901, 0.0097 
468.268, 0.0074 
468.635, 0.0111 
469.001, 0.0094 
469.368, 0.0099 
469.735, 0.0076 
470.101, 0.0097 
470.468, 0.0104 
470.834, 0.0095 
471.201, 0.0098 
471.567, 0.0095 
471.934, 0.0089 
472.3, 0.0076 
472.666, 0.0075 
473.032, 0.0092 
473.399, 0.0078 
473.765, 0.0079 
474.131, 0.0085 
474.497, 0.0080 
474.863, 0.0057 
475.229, 0.0082 
475.595, 0.0080 
475.961, 0.0077 
476.327, 0.0082 
476.693, 0.0089 
477.058, 0.0083 
477.424, 0.0078 
477.79, 0.0079 
478.156, 0.0077 
478.521, 0.0071 
478.887, 0.0087 
479.252, 0.0067 
479.618, 0.0075 
479.983, 0.0072 
480.348, 0.0067 
480.714, 0.0071 
481.079, 0.0078 
481.444, 0.0075 
481.81, 0.0085 
482.175, 0.0086 
482.54, 0.0076 
482.905, 0.0075 
483.27, 0.0084 
483.635, 0.0082 
484, 0.0068 
484.365, 0.0069 
484.73, 0.0060 
485.095, 0.0060 
485.459, 0.0067 
485.824, 0.0061 
486.189, 0.0063 
486.553, 0.0055 
486.918, 0.0066 
487.283, 0.0068 
487.647, 0.0083 
488.012, 0.0078 
488.376, 0.0057 
488.74, 0.0069 
489.105, 0.0066 
489.469, 0.0061 
489.833, 0.0066 
490.198, 0.0068 
490.562, 0.0056 
490.926, 0.0061 
491.29, 0.0073 
491.654, 0.0065 
492.018, 0.0062 
492.382, 0.0061 
492.746, 0.0066 
493.11, 0.0065 
493.474, 0.0067 
493.837, 0.0059 
494.201, 0.0058 
494.565, 0.0067 
494.928, 0.0051 
495.292, 0.0060 
495.656, 0.0055 
496.019, 0.0064 
496.383, 0.0061 
496.746, 0.0063 
497.109, 0.0057 
497.473, 0.0052 
497.836, 0.0057 
498.199, 0.0059 
498.563, 0.0054 
498.926, 0.0058 
499.289, 0.0057 
499.652, 0.0062 
500.015, 0.0058 
500.378, 0.0057 
500.741, 0.0060 
501.104, 0.0057 
501.467, 0.0066 
501.829, 0.0067 
502.192, 0.0051 
502.555, 0.0060 
502.918, 0.0068 
503.28, 0.0055 
503.643, 0.0056 
504.005, 0.0055 
504.368, 0.0050 
504.73, 0.0059 
505.093, 0.0055 
505.455, 0.0056 
505.817, 0.0059 
506.18, 0.0058 
506.542, 0.0052 
506.904, 0.0051 
507.266, 0.0064 
507.628, 0.0060 
507.991, 0.0048 
508.353, 0.0065 
508.715, 0.0057 
509.076, 0.0045 
509.438, 0.0057 
509.8, 0.0045 
510.162, 0.0066 
510.524, 0.0063 
510.885, 0.0065 
511.247, 0.0049 
511.609, 0.0057 
511.97, 0.0058 
512.332, 0.0049 
512.693, 0.0043 
513.055, 0.0063 
513.416, 0.0063 
513.778, 0.0053 
514.139, 0.0052 
514.5, 0.0061 
514.861, 0.0060 
515.223, 0.0051 
515.584, 0.0053 
515.945, 0.0051 
516.306, 0.0048 
516.667, 0.0045 
517.028, 0.0050 
517.389, 0.0053 
517.75, 0.0057 
518.11, 0.0055 
518.471, 0.0048 
518.832, 0.0056 
519.193, 0.0048 
519.553, 0.0052 
519.914, 0.0055 
520.274, 0.0058 
520.635, 0.0066 
520.995, 0.0061 
521.356, 0.0053 
521.716, 0.0054 
522.076, 0.0046 
522.437, 0.0052 
522.797, 0.0055 
523.157, 0.0058 
523.517, 0.0052 
523.877, 0.0054 
524.238, 0.0056 
524.598, 0.0045 
524.958, 0.0050 
525.317, 0.0061 
525.677, 0.0065 
526.037, 0.0057 
526.397, 0.0055 
526.757, 0.0053 
527.116, 0.0049 
527.476, 0.0057 
527.836, 0.0058 
528.195, 0.0058 
528.555, 0.0040 
528.914, 0.0050 
529.274, 0.0055 
529.633, 0.0060 
529.993, 0.0053 
530.352, 0.0058 
530.711, 0.0049 
531.07, 0.0056 
531.429, 0.0055 
531.789, 0.0049 
532.148, 0.0056 
532.507, 0.0053 
532.866, 0.0047 
533.225, 0.0057 
533.584, 0.0065 
533.942, 0.0045 
534.301, 0.0045 
534.66, 0.0046 
535.019, 0.0062 
535.377, 0.0055 
535.736, 0.0063 
536.095, 0.0052 
536.453, 0.0052 
536.812, 0.0059 
537.17, 0.0049 
537.528, 0.0052 
537.887, 0.0064 
538.245, 0.0056 
538.603, 0.0061 
538.962, 0.0065 
539.32, 0.0058 
539.678, 0.0060 
540.036, 0.0062 
540.394, 0.0061 
540.752, 0.0066 
541.11, 0.0066 
541.468, 0.0077 
541.826, 0.0071 
542.184, 0.0069 
542.541, 0.0065 
542.899, 0.0065 
543.257, 0.0075 
543.614, 0.0066 
543.972, 0.0077 
544.33, 0.0060 
544.687, 0.0073 
545.045, 0.0104 
545.402, 0.0135 
545.759, 0.0146 
546.117, 0.0122 
546.474, 0.0096 
546.831, 0.0086 
547.188, 0.0082 
547.546, 0.0074 
547.903, 0.0069 
548.26, 0.0062 
548.617, 0.0063 
548.974, 0.0059 
549.331, 0.0059 
549.687, 0.0063 
550.044, 0.0069 
550.401, 0.0061 
550.758, 0.0069 
551.114, 0.0070 
551.471, 0.0071 
551.828, 0.0059 
552.184, 0.0054 
552.541, 0.0066 
552.897, 0.0062 
553.254, 0.0055 
553.61, 0.0059 
553.966, 0.0069 
554.323, 0.0059 
554.679, 0.0050 
555.035, 0.0063 
555.391, 0.0053 
555.747, 0.0064 
556.103, 0.0057 
556.459, 0.0057 
556.815, 0.0062 
557.171, 0.0059 
557.527, 0.0066 
557.883, 0.0056 
558.239, 0.0066 
558.594, 0.0056 
558.95, 0.0056 
559.306, 0.0068 
559.661, 0.0060 
560.017, 0.0063 
560.372, 0.0062 
560.728, 0.0057 
561.083, 0.0064 
561.438, 0.0064 
561.794, 0.0061 
562.149, 0.0062 
562.504, 0.0063 
562.859, 0.0067 
563.215, 0.0055 
563.57, 0.0064 
563.925, 0.0057 
564.28, 0.0055 
564.635, 0.0069 
564.99, 0.0070 
565.344, 0.0057 
565.699, 0.0054 
566.054, 0.0057 
566.409, 0.0059 
566.763, 0.0070 
567.118, 0.0064 
567.473, 0.0073 
567.827, 0.0060 
568.182, 0.0070 
568.536, 0.0065 
568.891, 0.0058 
569.245, 0.0072 
569.599, 0.0061 
569.953, 0.0059 
570.308, 0.0061 
570.662, 0.0055 
571.016, 0.0070 
571.37, 0.0070 
571.724, 0.0068 
572.078, 0.0068 
572.432, 0.0072 
572.786, 0.0060 
573.14, 0.0064 
573.494, 0.0062 
573.847, 0.0065 
574.201, 0.0065 
574.555, 0.0057 
574.908, 0.0068 
575.262, 0.0074 
575.615, 0.0062 
575.969, 0.0082 
576.322, 0.0089 
576.676, 0.0084 
577.029, 0.0077 
577.382, 0.0075 
577.736, 0.0075 
578.089, 0.0081 
578.442, 0.0069 
578.795, 0.0087 
579.148, 0.0068 
579.501, 0.0075 
579.854, 0.0079 
580.207, 0.0077 
580.56, 0.0070 
580.913, 0.0071 
581.265, 0.0069 
581.618, 0.0080 
581.971, 0.0081 
582.324, 0.0073 
582.676, 0.0077 
583.029, 0.0074 
583.381, 0.0074 
583.734, 0.0076 
584.086, 0.0071 
584.438, 0.0075 
584.791, 0.0085 
585.143, 0.0087 
585.495, 0.0077 
585.847, 0.0081 
586.2, 0.0092 
586.552, 0.0082 
586.904, 0.0085 
587.256, 0.0085 
587.608, 0.0086 
587.959, 0.0096 
588.311, 0.0087 
588.663, 0.0091 
589.015, 0.0090 
589.367, 0.0091 
589.718, 0.0090 
590.07, 0.0091 
590.421, 0.0088 
590.773, 0.0095 
591.124, 0.0085 
591.476, 0.0093 
591.827, 0.0083 
592.179, 0.0105 
592.53, 0.0094 
592.881, 0.0089 
593.232, 0.0111 
593.584, 0.0106 
593.935, 0.0097 
594.286, 0.0097 
594.637, 0.0111 
594.988, 0.0113 
595.339, 0.0113 
595.689, 0.0104 
596.04, 0.0114 
596.391, 0.0114 
596.742, 0.0116 
597.092, 0.0119 
597.443, 0.0124 
597.794, 0.0133 
598.144, 0.0113 
598.495, 0.0126 
598.845, 0.0124 
599.196, 0.0139 
599.546, 0.0138 
599.896, 0.0148 
600.247, 0.0141 
600.597, 0.0141 
600.947, 0.0143 
601.297, 0.0154 
601.647, 0.0163 
601.997, 0.0152 
602.347, 0.0157 
602.697, 0.0178 
603.047, 0.0171 
603.397, 0.0170 
603.747, 0.0182 
604.096, 0.0195 
604.446, 0.0191 
604.796, 0.0212 
605.145, 0.0198 
605.495, 0.0215 
605.844, 0.0202 
606.194, 0.0215 
606.543, 0.0215 
606.893, 0.0219 
607.242, 0.0227 
607.591, 0.0245 
607.94, 0.0243 
608.29, 0.0254 
608.639, 0.0241 
608.988, 0.0265 
609.337, 0.0271 
609.686, 0.0267 
610.035, 0.0280 
610.384, 0.0306 
610.733, 0.0321 
611.081, 0.0337 
611.43, 0.0331 
611.779, 0.0350 
612.127, 0.0344 
612.476, 0.0364 
612.825, 0.0373 
613.173, 0.0368 
613.522, 0.0383 
613.87, 0.0418 
614.218, 0.0421 
614.567, 0.0427 
614.915, 0.0447 
615.263, 0.0452 
615.611, 0.0452 
615.96, 0.0470 
616.308, 0.0497 
616.656, 0.0523 
617.004, 0.0525 
617.352, 0.0546 
617.7, 0.0549 
618.047, 0.0586 
618.395, 0.0624 
618.743, 0.0636 
619.091, 0.0675 
619.438, 0.0689 
619.786, 0.0702 
620.134, 0.0724 
620.481, 0.0762 
620.829, 0.0774 
621.176, 0.0821 
621.523, 0.0845 
621.871, 0.0901 
622.218, 0.0883 
622.565, 0.0958 
622.912, 0.0961 
623.259, 0.1029 
623.607, 0.1031 
623.954, 0.1088 
624.301, 0.1092 
624.648, 0.1169 
624.994, 0.1200 
625.341, 0.1199 
625.688, 0.1264 
626.035, 0.1287 
626.382, 0.1307 
626.728, 0.1366 
627.075, 0.1341 
627.421, 0.1396 
627.768, 0.1423 
628.114, 0.1459 
628.461, 0.1459 
628.807, 0.1471 
629.154, 0.1479 
629.5, 0.1499 
629.846, 0.1481 
630.192, 0.1470 
630.538, 0.1442 
630.884, 0.1387 
631.231, 0.1378 
631.577, 0.1308 
631.922, 0.1256 
632.268, 0.1206 
632.614, 0.1159 
632.96, 0.1105 
633.306, 0.1013 
633.651, 0.0971 
633.997, 0.0902 
634.343, 0.0863 
634.688, 0.0789 
635.034, 0.0734 
635.379, 0.0680 
635.725, 0.0662 
636.07, 0.0600 
636.415, 0.0570 
636.761, 0.0534 
637.106, 0.0478 
637.451, 0.0485 
637.796, 0.0444 
638.141, 0.0406 
638.486, 0.0387 
638.831, 0.0375 
639.176, 0.0358 
639.521, 0.0323 
639.866, 0.0311 
640.211, 0.0305 
640.555, 0.0266 
640.9, 0.0266 
641.245, 0.0257 
641.589, 0.0250 
641.934, 0.0221 
642.278, 0.0219 
642.623, 0.0226 
642.967, 0.0211 
643.312, 0.0192 
643.656, 0.0197 
644, 0.0183 
644.344, 0.0188 
644.689, 0.0167 
645.033, 0.0161 
645.377, 0.0154 
645.721, 0.0152 
646.065, 0.0158 
646.409, 0.0139 
646.753, 0.0139 
647.096, 0.0139 
647.44, 0.0129 
647.784, 0.0134 
648.128, 0.0123 
648.471, 0.0110 
648.815, 0.0119 
649.158, 0.0111 
649.502, 0.0108 
649.845, 0.0095 
650.189, 0.0113 
650.532, 0.0097 
650.875, 0.0100 
651.218, 0.0104 
651.562, 0.0108 
651.905, 0.0097 
652.248, 0.0108 
652.591, 0.0105 
652.934, 0.0077 
653.277, 0.0088 
653.62, 0.0085 
653.963, 0.0089 
654.305, 0.0077 
654.648, 0.0103 
654.991, 0.0093 
655.334, 0.0093 
655.676, 0.0086 
656.019, 0.0074 
656.361, 0.0086 
656.704, 0.0095 
657.046, 0.0095 
657.389, 0.0085 
657.731, 0.0081 
658.073, 0.0090 
658.415, 0.0080 
658.757, 0.0086 
659.1, 0.0089 
659.442, 0.0078 
659.784, 0.0076 
660.126, 0.0077 
660.468, 0.0082 
660.809, 0.0083 
661.151, 0.0078 
661.493, 0.0093 
661.835, 0.0082 
662.177, 0.0083 
662.518, 0.0079 
662.86, 0.0088 
663.201, 0.0088 
663.543, 0.0079 
663.884, 0.0072 
664.226, 0.0088 
664.567, 0.0066 
664.908, 0.0079 
665.249, 0.0080 
665.591, 0.0067 
665.932, 0.0080 
666.273, 0.0078 
666.614, 0.0083 
666.955, 0.0088 
667.296, 0.0082 
667.637, 0.0062 
667.978, 0.0080 
668.318, 0.0081 
668.659, 0.0082 
669, 0.0086 
669.341, 0.0084 
669.681, 0.0079 
670.022, 0.0076 
670.362, 0.0087 
670.703, 0.0084 
671.043, 0.0086 
671.383, 0.0068 
671.724, 0.0079 
672.064, 0.0071 
672.404, 0.0087 
672.744, 0.0076 
673.085, 0.0093 
673.425, 0.0074 
673.765, 0.0078 
674.105, 0.0086 
674.444, 0.0078 
674.784, 0.0097 
675.124, 0.0098 
675.464, 0.0078 
675.804, 0.0078 
676.143, 0.0078 
676.483, 0.0069 
676.823, 0.0080 
677.162, 0.0089 
677.501, 0.0083 
677.841, 0.0092 
678.18, 0.0086 
678.52, 0.0077 
678.859, 0.0078 
679.198, 0.0071 
679.537, 0.0081 
679.876, 0.0086 
680.215, 0.0083 
680.555, 0.0090 
680.894, 0.0086 
681.232, 0.0084 
681.571, 0.0082 
681.91, 0.0087 
682.249, 0.0086 
682.588, 0.0087 
682.926, 0.0078 
683.265, 0.0091 
683.604, 0.0095 
683.942, 0.0090 
684.281, 0.0086 
684.619, 0.0071 
684.957, 0.0092 
685.296, 0.0075 
685.634, 0.0088 
685.972, 0.0098 
686.31, 0.0076 
686.649, 0.0093 
686.987, 0.0076 
687.325, 0.0078 
687.663, 0.0094 
688.001, 0.0074 
688.338, 0.0092 
688.676, 0.0072 
689.014, 0.0097 
689.352, 0.0088 
689.69, 0.0087 
690.027, 0.0089 
690.365, 0.0087 
690.702, 0.0087 
691.04, 0.0086 
691.377, 0.0101 
691.715, 0.0087 
692.052, 0.0089 
692.389, 0.0083 
692.726, 0.0074 
693.064, 0.0092 
693.401, 0.0087 
693.738, 0.0070 
694.075, 0.0084 
694.412, 0.0081 
694.749, 0.0068 
695.086, 0.0087 
695.423, 0.0088 
695.759, 0.0078 
696.096, 0.0083 
696.433, 0.0103 
696.769, 0.0091 
697.106, 0.0088 
697.443, 0.0075 
697.779, 0.0092 
698.116, 0.0104 
698.452, 0.0106 
698.788, 0.0091 
699.125, 0.0090 
699.461, 0.0079 
699.797, 0.0096 
700.133, 0.0104 
700.469, 0.0088 
700.805, 0.0101 
701.141, 0.0098 
701.477, 0.0084 
701.813, 0.0101 
702.149, 0.0106 
702.485, 0.0093 
702.82, 0.0078 
703.156, 0.0096 
703.492, 0.0074 
703.827, 0.0077 
704.163, 0.0082 
704.498, 0.0107 
704.834, 0.0101 
705.169, 0.0088 
705.505, 0.0097 
705.84, 0.0093 
706.175, 0.0101 
706.51, 0.0103 
706.845, 0.0099 
707.18, 0.0100 
707.515, 0.0107 
707.85, 0.0094 
708.185, 0.0103 
708.52, 0.0115 
708.855, 0.0115 
709.19, 0.0109 
709.525, 0.0086 
709.859, 0.0118 
710.194, 0.0116 
710.529, 0.0101 
710.863, 0.0098 
711.198, 0.0089 
711.532, 0.0110 
711.866, 0.0089 
712.201, 0.0120 
712.535, 0.0115 
712.869, 0.0124 
713.203, 0.0108 
713.537, 0.0119 
713.872, 0.0116 
714.206, 0.0105 
714.54, 0.0125 
714.873, 0.0103 
715.207, 0.0099 
715.541, 0.0118 
715.875, 0.0085 
716.209, 0.0111 
716.542, 0.0103 
716.876, 0.0110 
717.21, 0.0124 
717.543, 0.0119 
717.877, 0.0114 
718.21, 0.0116 
718.543, 0.0118 
718.877, 0.0108 
719.21, 0.0105 
719.543, 0.0117 
719.876, 0.0094 
720.209, 0.0116 
720.542, 0.0106 
720.875, 0.0105 
721.208, 0.0109 
721.541, 0.0110 
721.874, 0.0119 
722.207, 0.0116 
722.54, 0.0108 
722.872, 0.0100 
723.205, 0.0115 
723.538, 0.0105 
723.87, 0.0119 
724.203, 0.0125 
724.535, 0.0117 
724.868, 0.0118 
725.2, 0.0117 
725.532, 0.0137 
725.865, 0.0127 
726.197, 0.0128 
726.529, 0.0100 
726.861, 0.0118 
727.193, 0.0113 
727.525, 0.0099 
727.857, 0.0117 
728.189, 0.0109 
728.521, 0.0087 
728.853, 0.0134 
729.184, 0.0089 
729.516, 0.0161 
729.848, 0.0123 
730.179, 0.0133 
730.511, 0.0121 
730.842, 0.0118 
731.174, 0.0127 
731.505, 0.0111 
731.836, 0.0135 
732.168, 0.0117 
732.499, 0.0109 
732.83, 0.0121 
733.161, 0.0141 
733.492, 0.0121 
733.823, 0.0139 
734.154, 0.0140 
734.485, 0.0130 
734.816, 0.0131 
735.147, 0.0152 
735.478, 0.0119 
735.808, 0.0120 
736.139, 0.0135 
736.47, 0.0129 
736.8, 0.0116 
737.131, 0.0126 
737.461, 0.0117 
737.792, 0.0134 
738.122, 0.0136 
738.452, 0.0113 
738.782, 0.0109 
739.113, 0.0088 
739.443, 0.0126 
739.773, 0.0134 
740.103, 0.0146 
740.433, 0.0125 
740.763, 0.0130 
741.093, 0.0132 
741.423, 0.0131 
741.752, 0.0114 
742.082, 0.0117 
742.412, 0.0129 
742.742, 0.0125 
743.071, 0.0131 
743.401, 0.0132 
743.73, 0.0134 
744.06, 0.0133 
744.389, 0.0140 
744.718, 0.0109 
745.048, 0.0142 
745.377, 0.0153 
745.706, 0.0139 
746.035, 0.0116 
746.364, 0.0137 
746.693, 0.0129 
747.022, 0.0115 
747.351, 0.0129 
747.68, 0.0134 
748.009, 0.0145 
748.338, 0.0148 
748.666, 0.0127 
748.995, 0.0148 
749.323, 0.0157 
749.652, 0.0138 
749.981, 0.0149 
750.309, 0.0148 
750.637, 0.0135 
750.966, 0.0124 
751.294, 0.0130 
751.622, 0.0142 
751.95, 0.0139 
752.279, 0.0144 
752.607, 0.0158 
752.935, 0.0163 
753.263, 0.0173 
753.591, 0.0128 
753.919, 0.0131 
754.246, 0.0132 
754.574, 0.0141 
754.902, 0.0148 
755.23, 0.0140 
755.557, 0.0170 
755.885, 0.0165 
756.212, 0.0120 
756.54, 0.0148 
756.867, 0.0156 
757.195, 0.0146 
757.522, 0.0131 
757.849, 0.0118 
758.176, 0.0151 
758.503, 0.0147 
758.831, 0.0121 
759.158, 0.0137 
759.485, 0.0146 
759.812, 0.0153 
760.138, 0.0153 
760.465, 0.0140 
760.792, 0.0139 
761.119, 0.0156 
761.446, 0.0130 
761.772, 0.0151 
762.099, 0.0173 
762.425, 0.0160 
762.752, 0.0145 
763.078, 0.0145 
763.405, 0.0152 
763.731, 0.0146 
764.057, 0.0157 
764.383, 0.0137 
764.71, 0.0196 
765.036, 0.0159 
765.362, 0.0178 
765.688, 0.0188 
766.014, 0.0181 
766.34, 0.0163 
766.665, 0.0161 
766.991, 0.0170 
767.317, 0.0161 
767.643, 0.0183 
767.968, 0.0153 
768.294, 0.0189 
768.619, 0.0178 
768.945, 0.0133 
769.27, 0.0147 
769.596, 0.0198 
769.921, 0.0148 
770.246, 0.0183 
770.572, 0.0162 
770.897, 0.0167 
771.222, 0.0187 
771.547, 0.0182 
771.872, 0.0166 
772.197, 0.0183 
772.522, 0.0182 
772.847, 0.0178 
773.171, 0.0153 
773.496, 0.0163 
773.821, 0.0147 
774.146, 0.0111 
774.47, 0.0159 
774.795, 0.0173 
775.119, 0.0155 
775.444, 0.0195 
775.768, 0.0164 
776.092, 0.0167 
776.417, 0.0197 
776.741, 0.0217 
777.065, 0.0135 
777.389, 0.0176 
777.713, 0.0178 
778.037, 0.0152 
778.361, 0.0205 
778.685, 0.0218 
779.009, 0.0177 
779.333, 0.0163 
779.657, 0.0203 
779.98, 0.0202 
780.304, 0.0171 
780.627, 0.0231 
780.951, 0.0188 
781.274, 0.0175 
781.598, 0.0217 
781.921, 0.0190 
782.245, 0.0205 
782.568, 0.0186 
782.891, 0.0235 
783.214, 0.0207 
783.537, 0.0193 
783.861, 0.0186 
784.184, 0.0205 
784.506, 0.0180 
784.829, 0.0166 
785.152, 0.0174 
785.475, 0.0215 
785.798, 0.0166 
786.12, 0.0237 
786.443, 0.0197 
786.766, 0.0204 
787.088, 0.0194 
787.411, 0.0179 
787.733, 0.0186 
788.056, 0.0187 
788.378, 0.0193 
788.7, 0.0196 
789.022, 0.0219 
789.345, 0.0179 
789.667, 0.0242 
789.989, 0.0167 
790.311, 0.0176 
790.633, 0.0187 
790.955, 0.0224 
791.276, 0.0214 
791.598, 0.0244 
791.92, 0.0243 
792.242, 0.0172 
792.563, 0.0192 
792.885, 0.0178 
793.206, 0.0232 
793.528, 0.0236 
793.849, 0.0201 
794.171, 0.0197 
794.492, 0.0220 
794.813, 0.0193 
795.134, 0.0178 
795.456, 0.0183 
795.777, 0.0218 
796.098, 0.0182 
796.419, 0.0218 
796.74, 0.0173 
797.061, 0.0200 
797.381, 0.0163 
797.702, 0.0184 
798.023, 0.0225 
798.344, 0.0193 
798.664, 0.0225 
798.985, 0.0183 
799.305, 0.0218 
799.626, 0.0167 
799.946, 0.0203 
800.267, 0.0208 
800.587, 0.0198 
800.907, 0.0147 
801.227, 0.0191 
801.548, 0.0217 
801.868, 0.0232 
802.188, 0.0233 
802.508, 0.0237 
802.828, 0.0216 
803.147, 0.0212 
803.467, 0.0182 
803.787, 0.0253 
804.107, 0.0199 
804.426, 0.0184 
804.746, 0.0175 
805.066, 0.0218 
805.385, 0.0239 
805.705, 0.0221 
806.024, 0.0211 
806.343, 0.0246 
806.663, 0.0226 
806.982, 0.0204 
807.301, 0.0218 
807.62, 0.0224 
807.939, 0.0214 
808.258, 0.0247 
808.577, 0.0246 
808.896, 0.0256 
809.215, 0.0254 
809.534, 0.0274 
809.852, 0.0255 
810.171, 0.0232 
810.49, 0.0254 
810.808, 0.0234 
811.127, 0.0187 
811.445, 0.0274 
811.764, 0.0291 
812.082, 0.0281 
812.401, 0.0258 
812.719, 0.0291 
813.037, 0.0179 
813.355, 0.0290 
813.673, 0.0240 
813.991, 0.0248 
814.309, 0.0219 
814.627, 0.0235 
814.945, 0.0246 
815.263, 0.0217 
815.581, 0.0241 
815.899, 0.0282 
816.216, 0.0275 
816.534, 0.0288 
816.851, 0.0263 
817.169, 0.0276 
817.486, 0.0314 
817.804, 0.0269 
818.121, 0.0269 
818.438, 0.0254 
818.756, 0.0278 
819.073, 0.0221 
819.39, 0.0263 
819.707, 0.0251 
820.024, 0.0324 
820.341, 0.0253 
820.658, 0.0290 
820.975, 0.0297 
821.292, 0.0241 
821.608, 0.0217 
821.925, 0.0288 
822.242, 0.0252 
822.558, 0.0270 
822.875, 0.0270 
823.191, 0.0284 
823.508, 0.0299 
823.824, 0.0224 
824.141, 0.0313 
824.457, 0.0253 
824.773, 0.0264 
825.089, 0.0334 
825.405, 0.0231 
825.721, 0.0288 
826.037, 0.0238 
826.353, 0.0275 
826.669, 0.0327 
826.985, 0.0322 
827.301, 0.0262 
827.617, 0.0317 
827.932, 0.0305 
828.248, 0.0256 
828.563, 0.0325 
828.879, 0.0309 
829.194, 0.0300 
829.51, 0.0304 
829.825, 0.0303 
830.14, 0.0306 
830.456, 0.0299 
830.771, 0.0369 
831.086, 0.0360 
831.401, 0.0330 
831.716, 0.0321 
832.031, 0.0360 
832.346, 0.0306 
832.661, 0.0303 
832.976, 0.0299 
833.29, 0.0266 
833.605, 0.0261 
833.92, 0.0316 
834.234, 0.0285 
834.549, 0.0345 
834.863, 0.0342 
835.178, 0.0352 
835.492, 0.0391 
835.806, 0.0344 
836.121, 0.0291 
836.435, 0.0344 
836.749, 0.0448 
837.063, 0.0324 
837.377, 0.0341 
837.691, 0.0319 
838.005, 0.0343 
838.319, 0.0397 
838.633, 0.0261 
838.946, 0.0334 
839.26, 0.0309 
839.574, 0.0336 
839.887, 0.0319 
840.201, 0.0344 
840.514, 0.0328 
840.828, 0.0398 
841.141, 0.0331 
841.455, 0.0370 
841.768, 0.0307 
842.081, 0.0325 
842.394, 0.0432 
842.707, 0.0357 
843.02, 0.0310 
843.333, 0.0301 
843.646, 0.0342 
843.959, 0.0363 
844.272, 0.0359 
844.585, 0.0351 
844.898, 0.0327 
845.21, 0.0343 
845.523, 0.0310 
845.835, 0.0394 
846.148, 0.0370 
846.46, 0.0354 
846.773, 0.0352 
847.085, 0.0290 
847.397, 0.0414 
847.71, 0.0346 
848.022, 0.0391 
848.334, 0.0390 
848.646, 0.0350 
848.958, 0.0340 
849.27, 0.0404 
849.582, 0.0351 
849.894, 0.0428 
850.205, 0.0366 
850.517, 0.0347 
850.829, 0.0390 
851.141, 0.0376 
851.452, 0.0399 
851.764, 0.0330 
852.075, 0.0429 
852.386, 0.0328 
852.698, 0.0310 
853.009, 0.0387 
853.32, 0.0380 
853.632, 0.0487 
853.943, 0.0436 
854.254, 0.0391 
854.565, 0.0376 
854.876, 0.0383 
855.187, 0.0353 
855.497, 0.0447 
855.808, 0.0463 
856.119, 0.0405 
856.43, 0.0438 
856.74, 0.0397 
857.051, 0.0445 
857.361, 0.0478 
857.672, 0.0471 
857.982, 0.0409 
858.293, 0.0434 
858.603, 0.0524 
858.913, 0.0437 
859.223, 0.0433 
859.533, 0.0479 
859.844, 0.0398 
860.154, 0.0504 
860.464, 0.0443 
860.773, 0.0454 
861.083, 0.0450 
861.393, 0.0391 
861.703, 0.0512 
862.013, 0.0526 
862.322, 0.0390 
862.632, 0.0438 
862.941, 0.0452 
863.251, 0.0479 
863.56, 0.0462 
863.869, 0.0549 
864.179, 0.0463 
864.488, 0.0515 
864.797, 0.0499 
865.106, 0.0484 
865.415, 0.0406 
865.724, 0.0382 
866.033, 0.0494 
866.342, 0.0486 
866.651, 0.0443 
866.96, 0.0396 
867.269, 0.0542 
867.577, 0.0482 
867.886, 0.0447 
868.195, 0.0459 
868.503, 0.0415 
868.812, 0.0544 
869.12, 0.0422 
869.428, 0.0478 
869.737, 0.0535 
870.045, 0.0499 
870.353, 0.0526 
870.661, 0.0602 
870.969, 0.0480 
871.277, 0.0461 
871.585, 0.0439 
871.893, 0.0550 
872.201, 0.0578 
872.509, 0.0531 
872.817, 0.0651 
873.124, 0.0439 
873.432, 0.0506 
873.739, 0.0461 
874.047, 0.0481 
874.354, 0.0399 
874.662, 0.0622 
874.969, 0.0518 
875.276, 0.0509 
875.584, 0.0560 
875.891, 0.0569 
876.198, 0.0489 
876.505, 0.0514 
876.812, 0.0502 
877.119, 0.0577 
877.426, 0.0538 
877.733, 0.0522 
878.04, 0.0505 
878.346, 0.0595 
878.653, 0.0476 
878.96, 0.0538 
879.266, 0.0649 
879.573, 0.0613 
879.879, 0.0491 
880.185, 0.0591 
880.492, 0.0611 
880.798, 0.0561 
881.104, 0.0536 
881.411, 0.0751 
881.717, 0.0563 
882.023, 0.0567 
882.329, 0.0541 
882.635, 0.0591 
882.941, 0.0719 
883.246, 0.0625 
883.552, 0.0724 
883.858, 0.0689 
884.164, 0.0679 
884.469, 0.0528 
884.775, 0.0717 
885.08, 0.0511 
885.386, 0.0630 
885.691, 0.0597 
885.996, 0.0649 
886.302, 0.0665 
886.607, 0.0641 
886.912, 0.0703 
887.217, 0.0696 
887.522, 0.0643 
887.827, 0.0567 
888.132, 0.0759 
888.437, 0.0710 
888.742, 0.0605 
889.046, 0.0571 
889.351, 0.0708 
889.656, 0.0622 
889.96, 0.0805 
890.265, 0.0660 
890.569, 0.0672 
890.874, 0.0731 
891.178, 0.0710 
891.483, 0.0649 
891.787, 0.0689 
892.091, 0.0685 
892.395, 0.0696 
892.699, 0.0639 
893.003, 0.0663 
893.307, 0.0615 
893.611, 0.0509 
893.915, 0.0778 
894.219, 0.0614 
894.523, 0.0693 
894.826, 0.0622 
895.13, 0.0697 
895.433, 0.0679 
895.737, 0.0735 
896.04, 0.0816 
896.344, 0.0918 
896.647, 0.0731 
896.95, 0.0693 
897.254, 0.0830 
897.557, 0.0702 
897.86, 0.0723 
898.163, 0.0709 
898.466, 0.0771 
898.769, 0.0672 
899.072, 0.0709 
899.375, 0.0772 
899.677, 0.0753 
899.98, 0.0632 
900.283, 0.0767 
900.585, 0.0871 
900.888, 0.0667 
901.191, 0.0783 
901.493, 0.0661 
901.795, 0.0720 
902.098, 0.0805 
902.4, 0.0734 
902.702, 0.0773 
903.004, 0.0670 
903.306, 0.0867 
903.608, 0.0806 
903.91, 0.0760 
904.212, 0.0805 
904.514, 0.0786 
904.816, 0.0767 
905.118, 0.0651 
905.42, 0.0589 
905.721, 0.0591 
906.023, 0.0895 
906.324, 0.0768 
906.626, 0.0776 
906.927, 0.0681 
907.228, 0.1032 
907.53, 0.0685 
907.831, 0.0688 
908.132, 0.0869 
908.433, 0.0767 
908.734, 0.0916 
909.035, 0.0753 
909.336, 0.0859 
909.637, 0.0794 
909.938, 0.0701 
910.239, 0.0745 
910.54, 0.0939 
910.84, 0.0775 
911.141, 0.0825 
911.441, 0.0672 
911.742, 0.0898 
912.042, 0.0855 
912.343, 0.0858 
912.643, 0.0921 
912.943, 0.0806 
913.244, 0.0924 
913.544, 0.0844 
913.844, 0.0897 
914.144, 0.0810 
914.444, 0.0803 
914.744, 0.0857 
915.044, 0.0844 
915.343, 0.0936 
915.643, 0.0955 
915.943, 0.0791 
916.243, 0.0937 
916.542, 0.0859 
916.842, 0.0910 
917.141, 0.1013 
917.441, 0.0719 
917.74, 0.0809 
918.039, 0.0628 
918.338, 0.0932 
918.638, 0.0991 
918.937, 0.0923 
919.236, 0.1064 
919.535, 0.1071 
919.834, 0.1152 
920.133, 0.1188 
920.431, 0.0946 
920.73, 0.0896 
921.029, 0.0987 
921.328, 0.1137 
921.626, 0.0844 
921.925, 0.1053 
922.223, 0.0987 
922.522, 0.0775 
922.82, 0.0927 
923.118, 0.0987 
923.417, 0.0950 
923.715, 0.0996 
924.013, 0.1148 
924.311, 0.1049 
924.609, 0.1265 
924.907, 0.0939 
925.205, 0.1283 
925.503, 0.1142 
925.801, 0.1286 
926.098, 0.1200 
926.396, 0.1241 
926.694, 0.1250 
926.991, 0.1158 
927.289, 0.1109 
927.586, 0.0985 
927.884, 0.1260 
928.181, 0.1218 
928.478, 0.1260 
928.775, 0.1151 
929.073, 0.1228 
929.37, 0.1480 
929.667, 0.1205 
929.964, 0.1355 
930.261, 0.1182 
930.557, 0.1192 
930.854, 0.1347 
931.151, 0.1486 
931.448, 0.1187 
931.744, 0.1281 
932.041, 0.1480 
932.337, 0.1362 
932.634, 0.1422 
932.93, 0.1077 
933.227, 0.1194 
933.523, 0.1517 
933.819, 0.1242 
934.115, 0.1132 
934.412, 0.1699 
934.708, 0.1258 
935.004, 0.1268 
935.3, 0.1789 
935.595, 0.1452 
935.891, 0.1546 
936.187, 0.1568 
936.483, 0.1536 
936.778, 0.1708 
937.074, 0.1713 
937.369, 0.1557 
937.665, 0.1670 
937.96, 0.1572 
938.256, 0.1416 
938.551, 0.1674 
938.846, 0.1687 
939.141, 0.1679 
939.437, 0.1932 
939.732, 0.1707 
940.027, 0.1639 
940.322, 0.1791 
940.617, 0.1766 
940.911, 0.1825 
941.206, 0.1339 
941.501, 0.1740 
941.796, 0.1924 
942.09, 0.1560 
942.385, 0.1968 
942.679, 0.2020 
942.974, 0.2309 
943.268, 0.1908 
943.562, 0.1796 
943.857, 0.1607 
944.151, 0.1650 
944.445, 0.1728 
944.739, 0.1674 
945.033, 0.2129 
945.327, 0.1745 
945.621, 0.2316 
945.915, 0.2626 
946.208, 0.2002 
946.502, 0.2145 
946.796, 0.2008 
947.089, 0.1993 
947.383, 0.1821 
947.676, 0.2036 
947.97, 0.1866 
948.263, 0.1908 
948.557, 0.1876 
948.85, 0.1949 
949.143, 0.1889 
949.436, 0.1976 
949.729, 0.2278 
950.022, 0.1824 
950.315, 0.2240 
950.608, 0.1965 
950.901, 0.2346 
951.194, 0.2030 
951.487, 0.2795 
951.779, 0.1937 
952.072, 0.2825 
952.364, 0.2003 
952.657, 0.2895 
952.949, 0.2621 
953.242, 0.3080 
953.534, 0.2146 
953.826, 0.2541 
954.118, 0.2237 
954.411, 0.2415 
954.703, 0.2452 
954.995, 0.2707 
955.287, 0.2250 
955.579, 0.2359 
955.87, 0.2818 
956.162, 0.2274 
956.454, 0.2667 
956.746, 0.2934 
957.037, 0.2769 
957.329, 0.2446 
957.62, 0.2982 
957.912, 0.2470 
958.203, 0.2723 
958.494, 0.3162 
958.786, 0.2935 
959.077, 0.2439 
959.368, 0.2862 
959.659, 0.3170 
959.95, 0.2705 
960.241, 0.3392 
960.532, 0.2357 
960.823, 0.2765 
961.114, 0.3113 
961.404, 0.2493 
961.695, 0.2815 
961.986, 0.2877 
962.276, 0.2484 
962.567, 0.3035 
962.857, 0.3483 
963.147, 0.2546 
963.438, 0.3633 
963.728, 0.3340 
964.018, 0.2995 
964.308, 0.3526 
964.598, 0.3234 
964.888, 0.3358 
965.178, 0.2838 
965.468, 0.3581 
965.758, 0.3594 
966.048, 0.3312 
966.338, 0.3876 
966.627, 0.3703 
966.917, 0.3763 
967.206, 0.3031 
967.496, 0.3591 
967.785, 0.4058 
968.075, 0.3678 
968.364, 0.3784 
968.653, 0.3217 
968.942, 0.4043 
969.232, 0.3830 
969.521, 0.3767 
969.81, 0.3342 
970.099, 0.4236 
970.388, 0.3915 
970.676, 0.4155 
970.965, 0.4080 
971.254, 0.4108 
971.543, 0.3842 
971.831, 0.3637 
972.12, 0.4407 
972.408, 0.3776 
972.697, 0.3675 
972.985, 0.4887 
973.273, 0.4196 
973.561, 0.4226 
973.85, 0.4534 
974.138, 0.3557 
974.426, 0.3654 
974.714, 0.4758 
975.002, 0.4165 
975.29, 0.5674 
975.577, 0.4436 
975.865, 0.4394 
976.153, 0.5709 
976.441, 0.5500 
976.728, 0.5245 
977.016, 0.4548 
977.303, 0.4564 
977.59, 0.5545 
977.878, 0.4460 
978.165, 0.6599 
978.452, 0.4435 
978.74, 0.6030 
979.027, 0.5328 
979.314, 0.4650 
979.601, 0.4909 
979.888, 0.4659 
980.174, 0.5749 
980.461, 0.4759 
980.748, 0.5654 
981.035, 0.6116 
981.321, 0.6340 
981.608, 0.6695 
981.894, 0.4935 
982.181, 0.6792 
982.467, 0.5130 
982.754, 0.6463 
983.04, 0.6119 
983.326, 0.5638 
983.612, 0.6309 
983.898, 0.6356 
984.184, 0.5996 
984.47, 0.6260 
984.756, 0.5445 
985.042, 0.7102 
985.328, 0.6109 
985.614, 0.7199 
985.899, 0.5616 
986.185, 0.6037 
986.47, 0.6611 
986.756, 0.6564 
987.041, 0.6162 
987.327, 0.6442 
987.612, 0.7623 
987.897, 0.7408 
988.182, 0.7328 
988.468, 0.7640 
988.753, 0.7538 
989.038, 0.6322 
989.323, 0.6745 
989.607, 0.6613 
989.892, 0.8685 
990.177, 0.8842 
990.462, 0.8358 
990.746, 0.6961 
991.031, 0.7448 
991.315, 0.8103 
991.6, 0.7830 
991.884, 0.7530 
992.169, 0.7474 
992.453, 0.7486 
992.737, 0.7535 
993.021, 0.8947 
993.305, 0.7314 
993.59, 0.9319 
993.874, 0.6319 
994.157, 0.8003 
994.441, 0.8640 
994.725, 0.9563 
995.009, 0.9229 
995.293, 1.0732 
995.576, 0.9506 
995.86, 0.9753 
996.143, 0.9723 
996.427, 1.0476 
996.71, 0.7375 
996.993, 0.8560 
997.277, 0.9819 
997.56, 0.8925 
997.843, 1.0833 
998.126, 0.9550 
998.409, 0.9715 
998.692, 0.9927 
998.975, 1.1179 
999.258, 1.0700 
999.541, 0.9787 
999.823, 1.0667 
1000.106, 1.1129 
1000.388, 1.0784 
1000.671, 1.1005 
1000.954, 1.0148 
1001.236, 1.3166 
1001.518, 1.1409 
1001.801, 1.2793 
1002.083, 1.1201 
1002.365, 1.0770 
1002.647, 1.1811 
1002.929, 1.0539 
1003.211, 1.1130 
1003.493, 1.0361 
1003.775, 1.3496 
1004.057, 1.0942 
1004.338, 1.2021 
1004.62, 1.0928 
1004.902, 1.2082 
1005.183, 1.0841 
1005.465, 1.2568 
1005.746, 1.0400 
1006.028, 1.3082 
1006.309, 1.1848 
1006.59, 1.4227 
1006.871, 1.3263 
1007.153, 1.4651 
1007.434, 1.0150 
1007.715, 1.2640 
1007.996, 1.5109 
1008.277, 1.2367 
1008.557, 1.6161 
1008.838, 1.5224 
1009.119, 1.4632 
1009.4, 1.4441 
1009.68, 1.4997 
1009.961, 1.3969 
1010.241, 1.6528 
1010.522, 1.5258 
1010.802, 1.4746 
1011.082, 1.6765 
1011.362, 1.8582 
1011.643, 1.4280 
1011.923, 1.4560 
1012.203, 1.4724 
1012.483, 1.7472 
1012.763, 1.5333 
1013.042, 1.5236 
1013.322, 1.6602 
1013.602, 2.0378 
1013.882, 1.8714 
1014.161, 1.3164 
1014.441, 1.7612 
1014.72, 1.6183 
1015, 1.5205 
1015.279, 1.8947 
1015.558, 1.7309 
1015.838, 1.8933 
1016.117, 1.7166 
1016.396, 1.8757 
1016.675, 1.9834 
1016.954, 1.9521 
1017.233, 1.9331 
1017.512, 1.8410 
1017.791, 2.0082 
1018.07, 2.2328 
1018.348, 1.9447 
1018.627, 1.9737 
1018.905, 1.9801 
1019.184, 1.8918 
1019.462, 1.9142 
1019.741, 2.2715 
1020.019, 2.2848 
1020.297, 2.1237 
1020.576, 2.0481 
1020.854, 2.6775 
1021.132, 2.2018 
1021.41, 2.2007 
1021.688, 2.1996 
